año,semana,casos
2015,1,77
2015,2,57
2015,3,51
2015,4,52
2015,5,42
2015,6,65
2015,7,60
2015,8,82
2015,9,70
2015,10,64
2015,11,77
2015,12,90
2015,13,105
2015,14,100
2015,15,85
2015,16,75
2015,17,93
2015,18,67
2015,19,70
2015,20,68
2015,21,59
2015,22,69
2015,23,71
2015,24,61
2015,25,57
2015,26,49
2015,27,42
2015,28,34
2015,29,27
2015,30,41
2015,31,47
2015,32,39
2015,33,36
2015,34,36
2015,35,34
2015,36,40
2015,37,37
2015,38,29
2015,39,27
2015,40,29
2015,41,32
2015,42,30
2015,43,26
2015,44,27
2015,45,32
2015,46,33
2015,47,38
2015,48,34
2015,49,25
2015,50,35
2015,51,34
2015,52,35
2016,1,50
2016,2,41
2016,3,62
2016,4,62
2016,5,66
2016,6,81
2016,7,63
2016,8,50
2016,9,67
2016,10,85
2016,11,62
2016,12,77
2016,13,99
2016,14,79
2016,15,101
2016,16,76
2016,17,89
2016,18,90
2016,19,85
2016,20,69
2016,21,46
2016,22,56
2016,23,51
2016,24,35
2016,25,40
2016,26,25
2016,27,23
2016,28,42
2016,29,20
2016,30,27
2016,31,37
2016,32,26
2016,33,25
2016,34,32
2016,35,21
2016,36,32
2016,37,19
2016,38,14
2016,39,20
2016,40,17
2016,41,15
2016,42,12
2016,43,11
2016,44,21
2016,45,31
2016,46,15
2016,47,18
2016,48,19
2016,49,12
2016,50,6
2016,51,4
2016,52,8
2017,1,11
2017,2,9
2017,3,10
2017,4,7
2017,5,5
2017,6,6
2017,7,7
2017,8,4
2017,9,6
2017,10,6
2017,11,5
2017,12,8
2017,13,6
2017,14,11
2017,15,6
2017,16,6
2017,17,5
2017,18,7
2017,19,9
2017,20,12
2017,21,4
2017,22,7
2017,23,14
2017,24,6
2017,25,7
2017,26,11
2017,27,6
2017,28,12
2017,29,12
2017,30,8
2017,31,14
2017,32,10
2017,33,11
2017,34,9
2017,35,14
2017,36,10
2017,37,8
2017,38,4
2017,39,10
2017,40,7
2017,41,7
2017,42,7
2017,43,1
2017,44,10
2017,45,6
2017,46,7
2017,47,7
2017,48,9
2017,49,5
2017,50,13
2017,51,6
2017,52,3
2018,1,6
2018,2,2
2018,3,6
2018,4,5
2018,5,8
2018,6,1
2018,7,4
2018,8,8
2018,9,5
2018,10,7
2018,11,6
2018,12,7
2018,13,3
2018,14,8
2018,15,10
2018,16,11
2018,17,10
2018,18,17
2018,19,11
2018,20,20
2018,21,14
2018,22,13
2018,23,6
2018,24,8
2018,25,11
2018,26,3
2018,27,6
2018,28,9
2018,29,8
2018,30,18
2018,31,11
2018,32,14
2018,33,9
2018,34,10
2018,35,21
2018,36,18
2018,37,9
2018,38,23
2018,39,24
2018,40,18
2018,41,26
2018,42,18
2018,43,25
2018,44,20
2018,45,17
2018,46,24
2018,47,17
2018,48,15
2018,49,21
2018,50,23
2018,51,19
2018,52,22
2019,1,17
2019,2,21
2019,3,19
2019,4,24
2019,5,22
2019,6,23
2019,7,20
2019,8,23
2019,9,30
2019,10,31
2019,11,27
2019,12,35
2019,13,37
2019,14,33
2019,15,34
2019,16,40
2019,17,58
2019,18,80
2019,19,70
2019,20,62
2019,21,80
2019,22,71
2019,23,89
2019,24,76
2019,25,91
2019,26,76
2019,27,112
2019,28,73
2019,29,81
2019,30,88
2019,31,82
2019,32,57
2019,33,55
2019,34,62
2019,35,62
2019,36,89
2019,37,58
2019,38,74
2019,39,69
2019,40,67
2019,41,65
2019,42,86
2019,43,67
2019,44,60
2019,45,43
2019,46,39
2019,47,43
2019,48,55
2019,49,46
2019,50,49
2019,51,39
2019,52,46
2020,1,37
2020,2,35
2020,3,31
2020,4,28
2020,5,45
2020,6,35
2020,7,25
2020,8,24
2020,9,24
2020,10,52
2020,11,34
2020,12,20
2020,13,17
2020,14,21
2020,15,16
2020,16,16
2020,17,30
2020,18,21
2020,19,28
2020,20,34
2020,21,27
2020,22,16
2020,23,17
2020,24,15
2020,25,20
2020,26,12
2020,27,12
2020,28,12
2020,29,15
2020,30,6
2020,31,11
2020,32,2
2020,33,2
2020,34,3
2020,35,4
2020,36,6
2020,37,5
2020,38,5
2020,39,5
2020,40,4
2020,41,4
2020,42,3
2020,43,1
2020,44,6
2020,45,4
2020,46,5
2020,47,8
2020,48,1
2020,49,4
2020,50,9
2020,51,2
2020,52,6
2020,53,3
2021,2,5
2021,3,2
2021,4,6
2021,5,1
2021,6,6
2021,7,5
2021,8,1
2021,9,3
2021,10,5
2021,11,1
2021,12,2
2021,13,2
2021,14,4
2021,15,6
2021,16,4
2021,17,7
2021,18,12
2021,19,7
2021,20,1
2021,21,2
2021,22,4
2021,23,1
2021,24,6
2021,25,1
2021,26,6
2021,27,5
2021,28,6
2021,29,4
2021,30,6
2021,31,4
2021,32,4
2021,33,6
2021,34,9
2021,35,7
2021,36,7
2021,37,9
2021,38,10
2021,39,7
2021,40,6
2021,41,8
2021,42,7
2021,43,13
2021,44,7
2021,45,7
2021,46,13
2021,47,9
2021,48,7
2021,49,9
2021,50,12
2021,51,7
2021,52,8
2022,1,3
2022,2,5
2022,3,6
2022,4,3
2022,5,5
2022,6,9
2022,7,2
2022,8,9
2022,9,9
2022,10,5
2022,11,4
2022,12,6
2022,13,8
2022,14,6
2022,15,4
2022,16,5
2022,17,12
2022,18,23
2022,19,35
2022,20,47
2022,21,37
2022,22,42
2022,23,30
2022,24,11
2022,25,9
2022,26,16
2022,27,24
2022,28,22
2022,29,19
2022,30,22
2022,31,23
2022,32,24
2022,33,26
2022,34,18
2022,35,23
2022,36,23
2022,37,19
2022,38,21
2022,39,14
2022,40,26
2022,41,12
2022,42,20
2022,43,30
2022,44,21
2022,45,29
2022,46,27
2022,47,26
2022,48,29
2022,49,22
2022,50,23
2022,51,25
2022,52,34
2023,1,13
2023,2,14
2023,3,15
2023,4,13
2023,5,7
2023,6,12
2023,7,23
2023,8,22
2023,9,23
2023,10,20
2023,11,17
2023,12,26
2023,13,26
2023,14,15
2023,15,31
2023,16,35
2023,17,40
2023,18,49
2023,19,47
2023,20,61
2023,21,50
2023,22,77
2023,23,74
2023,24,48
2023,25,68
2023,26,66
2023,27,74
2023,28,70
2023,29,85
2023,30,81
2023,31,109
2023,32,133
2023,33,98
2023,34,112
2023,35,120
2023,36,114
2023,37,105
2023,38,140
2023,39,123
2023,40,116
2023,41,133
2023,42,117
2023,43,72
2023,44,104
2023,45,89
2023,46,112
2023,47,117
2023,48,109
2023,49,113
2023,50,135
2023,51,143
2023,52,122
2024,1,134
2024,2,134
2024,3,150
2024,4,151
2024,5,144
2024,6,151
2024,7,185
2024,8,195
2024,9,203
2024,10,264
2024,11,226
2024,12,221
2024,13,272
2024,14,300
2024,15,273
2024,16,317
2024,17,324
2024,18,290
2024,19,372
2024,20,369
2024,21,414
2024,22,422
2024,23,390
2024,24,414
2024,25,454
2024,26,352
2024,27,420
2024,28,373
2024,29,307
2024,30,278
2024,31,309
2024,32,225
2024,33,202
2024,34,225
2024,35,162
2024,36,182
2024,37,161
2024,38,146
2024,39,114
2024,40,141
2024,41,99
2024,42,122
2024,43,113
2024,44,106
2024,45,108
2024,46,89
2024,47,95
2024,48,77
2024,49,119
2024,50,104
2024,51,75
2024,52,68
2025,1,41
2025,2,69
2025,3,84
2025,4,86
2025,5,77
2025,6,68
2025,7,61
2025,8,67
2025,9,61
2025,10,61
2025,11,76
2025,12,77
2025,13,83
2025,14,99
2025,15,93
2025,16,76
2025,17,84
2025,18,91
2025,19,87
2025,20,85
2025,21,81
2025,22,92
2025,23,80
2025,24,75
2025,25,61
2025,26,58
2025,27,42
2025,28,56
2025,29,65
2025,30,59
2025,31,56
2025,32,33
2025,33,44
2025,34,59
2025,35,31
